it,temp,actualQ,bestQ,pAvg,diversification
1000,64.5122,2926.34,3269.02,41.8129,1
2000,64.0315,2762.42,3269.02,39.403,1
3000,63.5524,3052.51,3269.02,37.9562,1
4000,63.0768,3016.6,3269.02,40.2332,1
5000,62.6048,3141.78,3416.1,33.7838,1
6000,62.1363,3477.46,3662.32,29.011,1
7000,61.6713,3314.82,3662.32,35.1744,1
8000,61.2097,3292.75,3662.32,34.4173,1
9000,60.7519,3266.91,3662.32,29.932,1
10000,60.2975,3157.34,3662.32,33.7143,1
11000,59.8465,3154.52,3802.78,28.4232,1
12000,59.3988,3303.79,3802.78,35.1097,1
13000,58.9544,3157.16,3802.78,34.8974,1
14000,58.5132,3143.34,3802.78,36.3905,1
15000,58.0752,3175.08,3802.78,35.0482,1
16000,57.6404,3415.37,3802.78,30.597,1
17000,57.2094,3183.86,3802.78,35.786,1
18000,56.7815,3482.91,3805.02,29.9465,1
19000,56.3568,3488.28,3805.02,31.9149,1
20000,55.9351,3318.1,3805.02,33.8762,1
21000,55.5164,3006.72,3805.02,32.8125,1
22000,55.1007,3233.95,3805.02,31.8966,1
23000,54.6887,3369.87,3805.02,31.8421,1
24000,54.2798,3444.24,3805.02,32.1212,1
25000,53.8737,3314.59,3805.02,28.8714,1
26000,53.4704,3408.97,4021.73,29.4537,1
27000,53.07,3619.14,4021.73,27.4468,1
28000,52.6733,3342.83,4021.73,32.0988,1
29000,52.2794,3159.95,4021.73,28.1938,1
30000,51.8882,3730.93,4021.73,27.8037,1
31000,51.4996,3254.45,4021.73,30.6667,1
32000,51.1143,3121.18,4021.73,34.0206,1
33000,50.7322,3253.76,4021.73,31.4554,1
34000,50.3526,3391.46,4021.73,27.7778,1
35000,49.9755,3529.58,4021.73,25.9259,1
36000,49.6017,3441.73,4021.73,29.8876,1
37000,49.2309,3501.47,4021.73,25.5624,1
38000,48.8624,3477.77,4021.73,32.3034,1
39000,48.4963,3422.31,4021.73,29.1759,1
40000,48.134,3738.57,4021.73,31.0078,1
41000,47.774,3387.22,4021.73,33.119,1
42000,47.4162,3166.91,4021.73,33.9426,1
43000,47.0614,3384.2,4021.73,27.3756,1
44000,46.7096,3594.5,4021.73,31.565,1
45000,46.36,3468.82,4021.73,26.6033,1
46000,46.0128,3572.3,4021.73,22.6013,1
47000,45.669,3483.33,4021.73,25.866,1
48000,45.3272,3661.9,4021.73,31.2321,1
49000,44.9877,3521.43,4021.73,30.1663,1
50000,44.6516,3709.45,4021.73,30.1546,1
51000,44.3173,3627.62,4021.73,26.972,1
52000,43.9855,3205.2,4021.73,24.0781,1
53000,43.6568,3627.5,4021.73,22.1983,1
54000,43.3299,3591.4,4021.73,22.49,1
55000,43.0057,3449.16,4021.73,28.7383,1
56000,42.6842,3576.56,4021.73,28.7634,1
57000,42.3644,3446.43,4021.73,25.7384,1
58000,42.0478,3297.74,4021.73,23.9754,1
59000,41.7332,3601.58,4021.73,19.9161,1
60000,41.4204,3803.28,4027.26,25.1799,1
61000,41.1112,3724.5,4027.26,16.6667,1
62000,40.8032,3353.53,4027.26,20.8437,1
63000,40.4981,3653.57,4027.26,22.8235,1
64000,40.1952,3780.88,4027.26,22.9645,1
65000,39.8939,3718.51,4027.26,29.9233,1
66000,39.5961,3698.89,4047.67,22.973,1
67000,39.2994,3305.15,4047.67,26.6,1
68000,39.0056,3942.42,4047.67,7.76699,0
69000,38.7138,4060.69,4083.69,6.21866,0
70000,38.4239,4122.72,4122.72,5.2,0
71000,38.1368,4144.88,4147.88,4.9,0
72000,37.8507,4194.87,4210.87,7.6,0
73000,37.5683,4210.12,4227.12,4.2,0
74000,37.2866,4257.12,4262.12,6.5,0
75000,37.0081,4241.15,4263.12,4.7,0
76000,36.731,4238.88,4263.12,4,0
77000,36.4563,4241.13,4263.12,5.1,0
78000,36.1835,4248.08,4263.12,4.9,0
79000,35.9127,4217.15,4263.12,5.9,0
80000,35.6442,4214.88,4263.12,4.6,0
81000,35.3772,4221.93,4263.12,4.2,0
82000,35.1129,4227.15,4263.12,5.5,0
83000,34.8497,3832.89,4263.12,14.3939,1
84000,34.5895,3717.09,4263.12,17.8378,1
85000,34.3301,3934.27,4263.12,20.9804,1
86000,34.0738,3757.37,4263.12,19.0945,1
87000,33.8182,3589.3,4263.12,17.495,1
88000,33.5659,3679.84,4263.12,17.7165,1
89000,33.3141,3569.37,4263.12,16.5275,1
90000,33.0655,3646.51,4263.12,19.6721,1
91000,32.8175,3615.2,4263.12,15.18,1
92000,32.5725,3791.54,4263.12,17.5889,1
93000,32.3284,3525.4,4263.12,18.4448,1
94000,32.0869,3653.52,4263.12,17.8344,1
95000,31.8468,3711.77,4263.12,12.7796,1
96000,31.6084,3604.83,4263.12,15.8451,1
97000,31.3719,3602.25,4263.12,24.7312,1
98000,31.1373,3532.56,4263.12,30.03,1
99000,30.9044,3685.48,4263.12,27.6667,1
100000,30.6732,3755.74,4263.12,20.1474,1
101000,30.4437,3992.51,4263.12,16.6038,1
102000,30.216,3910.54,4263.12,10.9353,1
103000,29.9899,3771.99,4263.12,11.6477,1
104000,29.7655,3878.54,4263.12,13.1298,1
105000,29.5427,4109.26,4263.12,12.2611,1
106000,29.3215,3927.48,4263.12,10.6443,1
107000,29.1022,4117.6,4263.12,16,1
108000,28.8845,3808.19,4263.12,17.3077,1
109000,28.6685,4014.98,4263.12,12.63,1
110000,28.454,3804.2,4263.12,16.0959,1
111000,28.2411,3858.84,4263.12,19.5378,1
112000,28.0297,3629.4,4263.12,14.3636,1
113000,27.8199,3690.06,4263.12,17.3913,1
114000,27.6119,4132.39,4263.12,17.3034,1
115000,27.4054,4033.8,4263.12,11.4428,1
116000,27.2003,3921.05,4263.12,15.3386,1
117000,26.9967,3992.1,4263.12,16.6329,1
118000,26.7945,3793.09,4263.12,14.7217,1
119000,26.5942,3863.22,4263.12,15.0635,1
120000,26.3954,3746.09,4263.12,17.6786,1
121000,26.1978,3757.89,4263.12,17.1674,1
122000,26.0017,3908.75,4263.12,16,1
123000,25.8071,3879.47,4263.12,14.6457,1
124000,25.6142,3682.26,4263.12,14.4852,1
125000,25.4226,4051.1,4263.12,13.5472,1
126000,25.2322,3990.53,4263.12,12.4549,1
127000,25.0434,3964.45,4263.12,11.9093,1
128000,24.8562,3896.01,4263.12,17.4545,1
129000,24.6702,3792.16,4263.12,15.4286,1
130000,24.4854,3882.32,4263.12,11.9309,1
131000,24.3023,4155.85,4263.12,8.09465,1
132000,24.1206,3941.33,4263.12,10.6725,1
133000,23.9401,4014.05,4263.12,11.1702,1
134000,23.7608,3980.38,4263.12,10.0134,1
135000,23.5832,3847.17,4263.12,10.1928,1
136000,23.4068,4167.47,4263.12,9.37913,1
137000,23.2314,3788.06,4263.12,16.0069,1
138000,23.0578,4091.87,4294.62,9.67742,1
139000,22.8853,4242.4,4294.62,9.9865,1
140000,22.7138,4118.63,4294.62,10.9649,1
141000,22.5441,4015.78,4294.62,9.73202,1
142000,22.3755,4140.08,4294.62,11.3115,1
143000,22.2078,3931.35,4294.62,11.6013,1
144000,22.0419,4001.72,4294.62,13.5849,1
145000,21.877,3983.99,4294.62,12.9082,1
146000,21.713,3989.13,4294.62,12.5418,1
147000,21.5508,4211.36,4294.62,10.9907,1
148000,21.3896,4235.84,4294.62,7.03704,1
149000,21.2293,3889.45,4294.62,11.5385,1
150000,21.0708,3942.58,4294.62,14.3434,1
151000,20.9129,3867.13,4294.62,13.3942,1
152000,20.7565,4116.57,4294.62,10.6475,1
153000,20.6013,4101.01,4298.91,9.93789,1
154000,20.4468,4161.09,4298.91,8.14917,1
155000,20.2942,4022.23,4298.91,9.6875,1
156000,20.1422,4118.65,4298.91,8.65103,1
157000,19.9915,4068.02,4298.91,9.42813,1
158000,19.8421,4209.32,4298.91,10.2804,1
159000,19.6933,4166.31,4298.91,10.2484,1
160000,19.5463,4243.7,4298.91,11.9195,1
161000,19.3998,4377.73,4377.73,9.02873,1
162000,19.2548,4246.32,4401.01,7.00132,1
163000,19.1107,4181.96,4401.01,8.80829,1
164000,18.9677,4323.04,4401.01,7.74194,1
165000,18.8259,4331.99,4424.01,6.05634,1
166000,18.6848,4408.37,4424.81,6.80628,1
167000,18.5453,4174.5,4434.7,8.06011,1
168000,18.4061,4173.21,4434.7,8.74384,1
169000,18.2688,4248.38,4434.7,6.89655,1
170000,18.1319,4227.2,4434.7,6.77146,1
171000,17.9964,4166.38,4434.7,8.1381,1
172000,17.8616,4329.49,4434.7,7.98969,1
173000,17.7281,4084.56,4434.7,7.53968,1
174000,17.5954,4308.52,4434.7,9.49285,1
175000,17.4638,4282.05,4434.7,8.40999,1
176000,17.3331,4351.2,4434.7,6.08365,1
177000,17.2034,4241.07,4434.7,7.17029,1
178000,17.0747,4307.61,4434.7,6.33609,1
179000,16.947,4235.65,4434.7,6.87898,1
180000,16.8202,4233.6,4434.7,8.69001,1
181000,16.6943,4122.26,4434.7,9.77836,1
182000,16.5694,4238.69,4434.7,8.34473,1
183000,16.4455,4126.89,4434.7,9.29578,1
184000,16.3224,4104.72,4434.7,7.02427,1
185000,16.2003,4199.63,4434.7,6.72154,1
186000,16.079,4378.57,4440.99,6.74449,1
187000,15.9589,4275.44,4440.99,6.86016,1
188000,15.8395,4396.51,4462.48,7.97203,1
189000,15.721,4378.67,4462.48,5.82404,1
190000,15.6034,4440.82,4462.48,5.41667,1
191000,15.4866,4411.75,4473.39,6.4433,1
192000,15.3708,4381.93,4473.39,5.75,1
193000,15.2557,4286.65,4473.39,6.11183,1
194000,15.1416,4396.79,4473.39,6.20872,1
195000,15.0283,4446.62,4473.39,5.48862,0
196000,14.9158,4534.24,4534.24,1.5,0
197000,14.8042,4547.24,4549.24,1.9,0
198000,14.6935,4551.24,4558.24,1.3,0
199000,14.5836,4580.79,4582.79,1.6,0
200000,14.4745,4574.79,4582.79,2.1,0
201000,14.3661,4578.79,4582.79,1.5,0
202000,14.2586,4577.79,4583.79,1.5,0
203000,14.1519,4579.79,4583.79,1.2,0
204000,14.046,4582.79,4583.79,1.1,0
205000,13.941,4579.79,4583.79,1.3,0
206000,13.8367,4580.79,4583.79,1.8,0
207000,13.7332,4578.79,4583.79,1.5,0
208000,13.6304,4580.79,4583.79,1.5,0
209000,13.5283,4574.79,4583.79,1.5,0
210000,13.4272,4572.49,4589.15,1.40562,1
211000,13.3268,4440.3,4589.15,5.97372,1
212000,13.227,4383.22,4589.15,4.83676,1
213000,13.128,4433.3,4589.15,4.79042,1
214000,13.0298,4444.08,4589.15,5.48628,1
215000,12.9324,4476.21,4589.15,6.07187,1
216000,12.8356,4531.47,4589.15,5.08685,1
217000,12.7395,4496.36,4589.15,3.7234,1
218000,12.6441,4415.45,4589.15,4.99343,1
219000,12.5496,4497.09,4589.15,5.40541,1
220000,12.4558,4437.07,4589.15,6.18182,1
221000,12.3625,4508.6,4589.15,5.05689,1
222000,12.27,4479.52,4589.15,4.55729,1
223000,12.1783,4533,4589.15,5.91862,1
224000,12.0871,4503.43,4589.15,4.82077,1
225000,11.9966,4540.98,4589.15,5.09317,1
226000,11.9069,4511.7,4589.15,4.96732,1
227000,11.8179,4537.88,4589.15,4.4757,1
228000,11.7294,4510.3,4589.15,5.10856,1
229000,11.6416,4518.67,4589.15,5.78106,1
230000,11.5546,4528.17,4589.15,3.79437,1
231000,11.4681,4488.89,4589.15,4.4757,1
232000,11.3822,4387.39,4596.35,5.90501,1
233000,11.2972,4421.68,4596.35,5.40201,1
234000,11.2126,4501.41,4596.35,4.39024,1
235000,11.1287,4534.83,4596.35,3.59281,1
236000,11.0455,4465.93,4596.35,5.29101,1
237000,10.9628,4407.71,4596.35,6.00751,1
238000,10.8808,4496.95,4596.35,4.67405,1
239000,10.7994,4453.67,4596.35,5.12465,1
240000,10.7185,4457.26,4596.35,4.6398,1
241000,10.6384,4454.36,4596.35,5.59701,1
242000,10.5588,4551.87,4596.35,4.87805,1
243000,10.4797,4502.13,4596.35,4.5977,1
244000,10.4014,4520.2,4596.35,4.79275,1
245000,10.3235,4420.88,4596.35,6.03338,1
246000,10.2463,4400.22,4596.35,4.32692,1
247000,10.1697,4492.46,4596.35,5.6051,1
248000,10.0934,4458.4,4596.35,5.3152,1
249000,10.0181,4529.67,4596.35,6.04891,1
250000,9.94306,4479.02,4596.35,3.87183,1
251000,9.86867,4491.58,4596.35,5.13141,1
252000,9.79489,4523.96,4596.35,5.21092,1
253000,9.72145,4415.87,4596.35,4.89596,1
254000,9.64888,4381.37,4596.35,5.04926,1
255000,9.57654,4466.76,4596.35,3.76344,1
256000,9.50502,4448.42,4596.35,5.689,1
257000,9.43385,4449.18,4596.35,3.73599,1
258000,9.36328,4506.44,4596.35,4.76773,1
259000,9.29325,4449.49,4596.35,3.83142,1
260000,9.22364,4485.79,4596.35,4.35323,1
261000,9.15473,4516.7,4596.35,4.05904,1
262000,9.08607,4515.53,4596.35,4.1779,1
263000,9.01827,4556.25,4596.35,5.29248,1
264000,8.95058,4489.97,4596.35,4.84928,1
265000,8.88382,4517.64,4596.35,4.2328,1
266000,8.81718,4507.32,4596.35,4.34227,1
267000,8.75138,4529.29,4596.35,4.59184,1
268000,8.68576,4532.77,4596.35,3.29815,1
269000,8.62091,4505.98,4596.35,3.06373,1
270000,8.55629,4504.95,4596.35,4.0201,1
271000,8.49239,4506.92,4596.35,3.86941,1
272000,8.42873,4506.09,4596.35,4.82574,1
273000,8.36579,4472.83,4596.35,5.63725,1
274000,8.30307,4502.57,4596.35,4.58015,1
275000,8.24108,4509.07,4596.35,5.15075,1
276000,8.17927,4495.27,4596.35,3.75162,1
277000,8.11823,4521.21,4596.35,5.35492,1
278000,8.05729,4551.13,4596.35,2.90557,1
279000,7.99721,4539.33,4596.35,4.11141,1
280000,7.93738,4513.41,4596.35,3.69914,1
281000,7.87799,4513.74,4596.35,5.10949,1
282000,7.81904,4544.44,4596.35,4.81013,1
283000,7.76053,4525.97,4596.35,2.38663,1
284000,7.70246,4518.51,4596.35,4.15045,1
285000,7.64481,4484.1,4596.35,4.98783,1
286000,7.58759,4515.31,4596.35,4.73815,1
287000,7.53084,4522.81,4596.35,4.33735,1
288000,7.47451,4503.8,4596.35,4.18204,1
289000,7.4186,4559.74,4596.35,2.72374,1
290000,7.3631,4526.48,4596.35,3.47938,1
291000,7.30801,4564.96,4596.35,4.2838,1
292000,7.25332,4572.69,4596.35,3.59435,1
293000,7.19902,4573.12,4596.35,2.7451,1
294000,7.14514,4561.25,4596.35,3.88959,1
295000,7.09172,4566.61,4596.35,2.84653,1
296000,7.03868,4567.61,4596.35,3.06122,1
297000,6.98602,4554.76,4596.35,3.02234,1
298000,6.93374,4557.01,4596.35,3.4713,1
299000,6.88183,4562.2,4596.35,2.56065,1
300000,6.83033,4555.1,4596.35,4.24403,1
301000,6.77926,4575.62,4596.35,2.73632,1
302000,6.72855,4567.01,4596.35,3.21384,1
303000,6.6782,4556.71,4596.35,3.85109,1
304000,6.6282,4549.87,4596.35,3.62225,1
305000,6.57861,4550.76,4596.35,4.18919,1
306000,6.52942,4551.89,4596.35,2.66836,1
307000,6.48058,4580.69,4596.35,3.14961,1
308000,6.43206,4576.88,4596.35,2.31362,1
309000,6.3839,4577.64,4596.35,3.51759,1
310000,6.33619,4556.45,4596.35,4.26065,1
311000,6.28879,4501.23,4596.35,4.3257,1
312000,6.24171,4528.62,4596.35,2.8777,1
313000,6.19498,4547,4596.35,3.27654,1
314000,6.14868,4507.38,4596.35,3.50438,1
315000,6.10268,4507.98,4596.35,3.21782,1
316000,6.05697,4506.41,4596.35,3.07076,1
317000,6.01167,4560.16,4596.35,3.05344,1
318000,5.96673,4541.68,4596.35,3.96301,1
319000,5.92206,4554.99,4596.35,3.08311,1
320000,5.87772,4555.21,4596.35,3.54331,1
321000,5.8338,4527.85,4596.35,2.457,1
322000,5.79014,4558.11,4596.35,3.18878,1
323000,5.74675,4559.78,4596.35,4.21607,1
324000,5.70382,4563.37,4596.35,3.56671,1
325000,5.66115,4560.55,4596.35,3.21337,1
326000,5.61871,4561.13,4596.35,2.78146,1
327000,5.57675,4572.69,4596.35,3.09789,1
328000,5.53503,4560.53,4596.35,4.06607,1
329000,5.49354,4540.05,4596.35,3.35052,1
330000,5.45252,4562.7,4596.35,2.84605,1
331000,5.41171,4562.76,4596.35,2.35602,1
332000,5.37118,4551.28,4596.35,2.65487,1
333000,5.33105,4579.95,4596.35,2.73632,1
334000,5.29112,4573.39,4596.35,3.00261,1
335000,5.25154,4577.03,4596.35,2.06044,1
336000,5.21228,4549.81,4596.35,2.79255,1
337000,5.1732,4566.61,4596.35,2.27882,1
338000,5.13457,4553.66,4596.35,2.27273,1
339000,5.09614,4549.44,4596.35,3.45269,1
340000,5.05799,4548.13,4596.35,2.10674,1
341000,5.02019,4573.69,4596.35,2.89673,1
342000,4.98254,4559.97,4596.35,1.74564,1
343000,4.94535,4558.05,4596.35,2.62172,1
344000,4.90831,4556.84,4596.35,2.75229,1
345000,4.8716,4547.42,4596.35,3.10945,1
346000,4.83517,4576.88,4596.35,2.88336,1
347000,4.79893,4579.66,4596.35,2.9563,1
348000,4.7631,4562.94,4596.35,2.67176,1
349000,4.72737,4583.89,4596.35,2.49344,1
350000,4.69208,4576.66,4596.35,2.49307,1
351000,4.65693,4571.76,4596.35,2.26131,1
352000,4.62212,4556.83,4596.35,2.84238,1
353000,4.58753,4548.44,4596.35,2.84974,1
354000,4.5532,4548.16,4596.35,3.33333,1
355000,4.51916,4567.47,4596.35,2.77411,1
356000,4.4853,4557.19,4596.35,3.49288,1
357000,4.45179,4563.58,4596.35,2.60756,1
358000,4.41841,4555.61,4596.35,2.00803,1
359000,4.38543,4544.89,4596.35,2.71318,1
360000,4.35253,4572.69,4596.35,2.78884,1
361000,4.32006,4577.25,4596.35,2.76316,1
362000,4.28763,4568.28,4596.35,2.89308,1
363000,4.25565,4575.89,4596.35,2.78129,1
364000,4.22371,4561.33,4596.35,1.78784,1
365000,4.19221,4577.84,4596.35,2.8314,1
366000,4.16074,4569.17,4596.35,3.29815,1
367000,4.12972,4556.39,4596.35,2.13904,1
368000,4.09872,4571.17,4596.35,2.1978,1
369000,4.06815,4556.14,4596.35,2.33161,1
370000,4.03763,4567.34,4596.35,2.06061,1
371000,4.0075,4571.93,4596.35,2.36842,1
372000,3.97751,4568.54,4596.35,2.06986,1
373000,3.94775,4551.98,4596.35,3.42556,1
374000,3.9182,4570.53,4596.35,2.09877,1
375000,3.88888,4572.73,4596.35,2.457,1
376000,3.85979,4570.7,4596.35,2.33838,1
377000,3.83092,4566.29,4596.35,2.36025,1
378000,3.80226,4570.94,4596.35,2.36531,1
379000,3.77382,4568.84,4596.35,1.69271,1
380000,3.74559,4562.55,4596.35,3.16857,1
381000,3.71756,4586.81,4596.35,1.98939,1
382000,3.68974,4580.97,4596.35,2.17687,1
383000,3.66212,4576.47,4596.35,2.28802,1
384000,3.63471,4571.2,4596.35,1.89155,1
385000,3.60753,4584.56,4596.35,1.45503,1
386000,3.58055,4575.47,4596.35,2.38429,1
387000,3.55376,4576.81,4596.35,1.82768,1
388000,3.52717,4581.84,4596.35,1.99468,1
389000,3.50077,4584.01,4596.35,2.31924,1
390000,3.47456,4574.08,4596.35,1.89445,1
391000,3.44857,4584.01,4596.35,0.902062,1
392000,3.42279,4575.42,4596.35,1.70604,1
393000,3.39718,4621.19,4621.19,1.24153,0
394000,3.37176,4627.19,4628.19,0.2,0
395000,3.34651,4628.19,4628.19,0.3,0
396000,3.32148,4628.19,4628.19,0.1,0
397000,3.29664,4628.19,4628.19,0.2,0
398000,3.27198,4628.19,4628.19,0.1,0
399000,3.24749,4628.19,4628.19,0,0
400000,3.22317,4628.19,4628.19,0.1,0
401000,3.19908,4628.19,4628.19,0.2,0
402000,3.17515,4627.19,4628.19,0.4,0
403000,3.15138,4628.19,4628.19,0.1,0
404000,3.12778,4626.19,4628.19,0.6,0
405000,3.10441,4628.19,4628.19,0.4,0
406000,3.08119,4627.19,4628.19,0.2,0
407000,3.05812,4628.19,4628.19,0.1,0
408000,3.03523,4634.42,4634.42,1.07271,1
409000,3.01254,4620.63,4634.42,2.55682,1
410000,2.99,4634.42,4634.42,2.53165,1
411000,2.96759,4631.78,4634.42,1.97869,1
412000,2.94542,4614.44,4634.42,2.71041,1
413000,2.92339,4632.03,4634.42,3.06569,1
414000,2.90149,4619.02,4634.42,2.15517,1
415000,2.8798,4617.27,4634.42,2.55255,1
416000,2.85826,4631.66,4636.25,1.46413,1
417000,2.83686,4636.61,4637.25,1.61765,1
418000,2.81564,4630.66,4637.25,1.52439,1
419000,2.79459,4638.61,4638.61,2.92308,1
420000,2.77365,4630.63,4638.61,0.995733,1
421000,2.75291,4636.61,4638.61,1.37615,1
422000,2.73233,4634.3,4638.61,2.49267,1
423000,2.71185,4635.22,4638.61,1.74603,1
424000,2.69159,4630.63,4638.61,2.46154,1
425000,2.67145,4635.66,4638.61,1.29241,1
426000,2.65143,4637.15,4638.61,1.96672,1
427000,2.63163,4635.22,4638.61,1.63447,1
428000,2.61193,4635.76,4638.61,1.76211,1
429000,2.59238,4638.61,4638.61,0.60241,1
430000,2.573,4636.86,4638.61,1.57233,1
431000,2.55371,4638.25,4638.61,1.68712,1
432000,2.53464,4627.69,4638.61,1.5361,1
433000,2.51567,4617.04,4638.61,1.40449,1
434000,2.49683,4618.35,4638.61,2.56776,1
435000,2.47818,4621.54,4638.61,1.52566,1
436000,2.45959,4630.61,4638.61,2.05279,1
437000,2.44123,4630.05,4638.61,0.839161,1
438000,2.42295,4627.42,4638.61,1.99387,1
439000,2.40483,4622,4638.61,1.50068,1
440000,2.38684,4620.34,4638.61,1.56919,1
441000,2.36896,4622.63,4638.61,1.64918,1
442000,2.35126,4627.69,4638.61,1.72911,1
443000,2.33362,4621.44,4638.61,1.00883,1
444000,2.31621,4626.88,4638.61,2.18978,1
445000,2.29885,4628.41,4638.61,1.56495,1
446000,2.28168,4631.8,4638.61,2.14067,1
447000,2.26459,4627.33,4638.61,2.27618,1
448000,2.24766,4631.25,4638.61,2.89634,1
449000,2.23084,4628.52,4638.61,2.19941,1
450000,2.21415,4620.88,4638.61,3.47432,1
451000,2.19758,4613.12,4638.61,2.62431,1
452000,2.18113,4624.02,4638.61,2.03125,1
453000,2.16483,4630.25,4638.61,1.4556,1
454000,2.14861,4628.86,4638.61,1.70015,1
455000,2.13256,4627.33,4638.61,1.30081,1
456000,2.11658,4628.88,4638.61,1.45985,1
457000,2.10076,4630.25,4638.61,1.60584,1
458000,2.08503,4622.63,4638.61,2.15827,1
459000,2.06945,4631.44,4638.61,0.903614,1
460000,2.05395,4625.69,4638.61,1.51515,1
461000,2.03859,4631.44,4638.61,1.45138,1
462000,2.02333,4627.22,4638.61,1.68196,1
463000,2.0082,4620.63,4638.61,2.19298,1
464000,1.99318,4631.8,4638.61,1.9697,1
465000,1.97827,4629.8,4638.61,0.681199,1
466000,1.96347,4628.61,4638.61,1.84397,1
467000,1.94878,4631.44,4638.61,1.09034,1
468000,1.9342,4628.52,4638.61,1.31965,1
469000,1.91973,4624.3,4638.61,2.05047,1
470000,1.90537,4627.69,4638.61,1.47275,1
471000,1.89111,4624.29,4638.61,0.702247,1
472000,1.87696,4628.41,4638.61,2.00308,1
473000,1.86291,4626.52,4638.61,1.43541,1
474000,1.84896,4625.13,4638.61,2.10526,1
475000,1.83513,4625.33,4638.61,1.5083,1
476000,1.82141,4625.66,4638.61,1.91083,1
477000,1.80779,4628.52,4638.61,2.27273,1
478000,1.79426,4623.38,4638.61,1.56986,1
479000,1.78083,4630.25,4638.61,1.06222,1
480000,1.7675,4625.69,4638.61,2.47117,1
481000,1.75427,4628.52,4638.61,1.54799,1
482000,1.74116,4631.44,4638.61,1.66163,1
483000,1.72813,4628.86,4638.61,2.00927,1
484000,1.7152,4628.88,4638.61,0.566572,1
485000,1.70237,4631.8,4638.61,0.935829,1
486000,1.68962,4627.78,4638.61,1.12994,1
487000,1.67698,4628.86,4638.61,1.31004,1
488000,1.66444,4628.61,4638.61,1.6129,1
489000,1.65199,4630.61,4638.61,1.1544,1
490000,1.63963,4630.61,4638.61,1.14286,1
491000,1.62735,4631.8,4638.61,0.527704,1
492000,1.61518,4620.9,4638.61,1.21622,1
493000,1.6031,4631.44,4638.61,1.06707,1
494000,1.5911,4631.8,4638.61,1.67173,1
495000,1.57919,4627.66,4638.61,0.570613,1
496000,1.56738,4631.8,4638.61,0.2886,1
497000,1.55566,4631.44,4638.61,0.806452,1
